0.008700 8
0.015300 73
0.016300 5
0.079300 34
0.086000 15
0.098900 73
0.125700 33
0.191700 72
0.195000 42
0.195700 57
0.206100 48
0.211000 89
0.217300 75
0.228700 55
0.230100 17
0.236000 1
0.237300 44
0.249800 76
0.249800 83
0.260600 97
0.262300 25
0.266000 21
0.271700 66
0.275200 71
0.280300 5
0.287900 3
0.297600 92
0.311300 36
0.311900 8
0.313500 99
0.315700 30
0.345900 76
0.358600 96
0.369500 63
0.391300 3
0.400800 69
0.404100 36
0.418400 31
0.421300 84
0.425100 37
0.425100 52
0.432500 14
0.455400 21
0.474300 49
0.483500 97
0.487700 49
0.499900 2
0.508100 91
0.536700 86
0.538500 93
0.548000 41
0.554000 81
0.558100 86
0.564200 2
0.567600 7
0.568000 35
0.569000 85
0.582000 58
0.600100 11
0.600300 41
0.603100 85
0.616900 26
0.627800 43
0.651700 79
0.652500 20
0.664300 1
0.693600 69
0.694000 86
0.699400 85
0.710900 26
0.731200 70
0.740600 25
0.760100 42
0.778300 11
0.779000 95
0.781900 76
0.787200 70
0.798900 18
0.800000 41
0.813900 78
0.841400 31
0.843400 18
0.848700 9
0.856600 0
0.861100 57
0.890500 98
0.891100 37
0.911400 86
0.913600 82
0.914200 39
0.921500 88
0.930100 78
0.942500 24
0.952700 16
0.962400 41
0.966200 55
1.018700 28
1.035300 74
1.040800 5
1.068600 17
1.070600 14
1.077900 5
1.084400 63
1.087600 19
1.090800 35
1.109700 86
1.111700 14
1.112200 30
1.132900 99
1.140100 85
1.146500 47
1.151500 94
1.152700 37
1.156500 40
1.159500 44
1.163600 26
1.164700 18
1.172800 41
1.213800 55
1.215200 28
1.223400 68
1.253300 4
1.260000 91
1.275900 62
1.275900 64
1.303400 51
1.313400 33
1.313900 19
1.316400 27
1.340700 38
1.354900 50
1.359400 64
1.368900 4
1.375100 52
1.381900 7
1.416000 49
1.416800 67
1.420900 14
1.428100 89
1.431000 77
1.432400 90
1.437500 22
1.441900 12
1.485800 90
1.491600 43
1.500700 58
1.515500 30
1.521100 18
1.526200 26
1.535600 14
1.542300 96
1.543700 49
1.544900 27
1.559100 8
1.600300 41
1.609400 93
1.640600 54
1.661000 83
1.668300 64
1.676900 87
1.684900 48
1.687700 96
1.700400 15
1.700600 23
1.707300 10
1.707600 91
1.711000 93
1.717700 65
1.721600 39
1.738900 94
1.759400 55
1.778000 12
1.778900 87
1.782700 96
1.785600 58
1.786000 84
1.794100 76
1.816000 35
1.828200 45
1.843100 79
1.859400 3
1.866500 38
1.867700 50
1.877000 30
1.901100 21
1.903000 27
1.905400 73
1.940400 1
1.948300 42
1.955500 65
1.955800 36
1.968400 84
1.980000 79
1.981900 27
1.982700 37
